 Freq (GHz)                  Error
   15.000000000000000        77654235.657127067        4.6352128596714355     
   15.300000000000001        62219742.868871935        3.7549546483633427     
   15.600000000000000        49587644.072625048        3.0662648906696757     
   15.900000000000000        39301912.520221218        2.5295906334727842     
   16.199999999999999        30971023.252164293        2.1131614591200547     
   16.500000000000000        24260472.110899273        1.7914902736826313     
   16.800000000000001        18885905.112918403        1.5441605166566057     
   17.100000000000001        14606847.315155499        1.3548453279130732     
   17.399999999999999        11221013.670436302        1.2105145676779461     
   17.699999999999999        8559178.9431318790        1.1007939434489271     
   18.000000000000000        6480579.4804112306        1.0174472557741125     
   18.300000000000001        4868816.4188965512       0.95395824971860788     
   18.600000000000001        3628227.6523188427       0.90519300160079852     
   18.899999999999999        2680694.4887353024       0.86712738054211103     
   19.199999999999999        1962848.2804590096       0.83662706041898727     
   19.500000000000000        1423642.3122222505       0.81126994697547206     
   19.800000000000001        1022254.7833078270       0.78920282908823181     
   20.100000000000001        726289.72293292894       0.76902564456665545     
   20.399999999999999        510244.04704492306       0.74969803578325755     
   20.699999999999999        354210.61802621122       0.73046391272732158     
   21.000000000000000        242789.03327120718       0.71079058465526113     
   21.300000000000001        164177.87852312153       0.69031970229703254     
   21.600000000000001        109424.27920906099       0.66882780008125031     
   21.899999999999999        71808.717224500622       0.64619466639166667     
   22.199999999999999        46345.208328204972       0.62237811957728728     
   22.500000000000000        29379.020007121449       0.59739404496297988     
   22.800000000000001        18266.121299218285       0.57130076724667767     
   23.100000000000001        11120.470571416850       0.54418700484585503     
   23.399999999999999        6617.0461264515379       0.51616278740249222     
   23.699999999999999        3840.1942912338213       0.48735282253323953     
   24.000000000000000        2168.4014047757009       0.45789187937635811     
   24.300000000000001        1187.9850106930330       0.42792181972092841     
   24.600000000000001        629.44425822077926       0.39758995671439523     
   24.899999999999999        321.31178601349603       0.36704845974232581     
   25.199999999999999        157.31356158740792       0.33645455482894210     
   25.500000000000000        73.475774671700179       0.30597129508058241     
   25.800000000000001        32.527140910128296       0.27576869715280927     
   26.100000000000001        13.540365006146656       0.24602505901958038     
   26.399999999999999        5.2484513522464020       0.21692829276001546     
   26.699999999999999        1.8709995674885320       0.18867712472906162     
   27.000000000000000       0.60377084497944455       0.16148203519246018     
   27.300000000000001       0.17277574883943092       0.13556583088524707     
   27.600000000000001        4.2698222741400768E-002  0.11116376730972598     
   27.899999999999999        8.8556054253421026E-003   8.8523162899339591E-002
   28.199999999999999        1.5691931685390766E-003   6.7902474033398844E-002
   28.500000000000000        3.4701018521024555E-004   4.9569827478901950E-002
   28.800000000000001        2.0202735323212188E-004   3.3801033938281884E-002
   29.100000000000001        1.9223663492041408E-004   2.0877131414011187E-002
   29.399999999999999        1.9269287820070858E-004   1.1081528218295686E-002
   29.699999999999999        1.9353797423428743E-004   4.6968307056749837E-003
   30.000000000000000        1.9441910544502081E-004   2.0014483334362303E-003
   30.294117647058822        1.9530354655880743E-004   3.2015407035450275E-003
   30.588235294117645        1.9619925277111134E-004   8.4524569940008700E-003
   30.882352941176471        1.9738265704552556E-004   1.7985076071509700E-002
   31.176470588235293        2.0734835723565734E-004   3.2013385446457411E-002
   31.470588235294116        3.3676790734685918E-004   5.0731289386987080E-002
   31.764705882352938        1.4424503201236299E-003   7.4309393058599280E-002
   32.058823529411768        8.1850005063658846E-003  0.10289168727776514     
   32.352941176470587        4.0251240475152258E-002  0.13659203261938413     
   32.647058823529413       0.16648269219871106       0.17549032790841101     
   32.941176470588232       0.59490696766490614       0.21962825202738029     
   33.235294117647058        1.8853427668224696       0.26900449437721913     
   33.529411764705884        5.4089661309240551       0.32356944186668840     
   33.823529411764703        14.272601459857691       0.38321937061694905     
   34.117647058823529        35.069699763789181       0.44779029761491823     
   34.411764705882355        81.034296640526208       0.51705177704149785     
   34.705882352941174        177.48278874189023       0.59070107002494854     
   35.000000000000000        370.86066390841523       0.66835826352713734     
   35.294117647058826        743.30305861161094       0.74956304901254056     
   35.588235294117645        1435.4117938868571       0.83377397699834588     
   35.882352941176471        2680.9976442830493       0.92037106089026421     
   36.176470588235290        4858.8938219483425        1.0086625947809882     
   36.470588235294123        8568.6831789239150        1.0978969604572051     
   36.764705882352942        14739.375880683796        1.1872800201878499     
   37.058823529411768        24782.815917316555        1.2759984247219642     
   37.352941176470587        40806.985596950886        1.3632488235569318     
   37.647058823529413        65908.532081708297        1.4482725754487207     
   37.941176470588232        104568.88826256664        1.5303951669599720     
   38.235294117647058        163184.44629335278        1.6090692187323716     
   38.529411764705877        250768.52677623060        1.6839197720070211     
   38.823529411764710        379871.54830671020        1.7547905916473232     
   39.117647058823529        567776.03795145929        1.8217905894059718     
   39.411764705882355        838035.15027166379        1.8853402461362494     
   39.705882352941174        1222437.4189027415        1.9462191526180759     
   40.000000000000000        1763496.8110724539        2.0056175095307052     
   40.294117647058826        2517586.0761315487        2.0651965754139643     
   40.588235294117645        3558853.1836001948        2.1271654868546093     
   40.882352941176471        4984085.6702461895        2.1943843511296826     
   41.176470588235290        6918716.3229643553        2.2705056651749054     
   41.470588235294116        9524196.2076366935        2.3601674694697383     
   41.764705882352942        13006998.037305936        2.4692516331474046     
   42.058823529411768        17629554.711648386        2.6052186746968431     
   42.352941176470587        23723485.043293744        2.7775259702871975     
   42.647058823529413        31705511.739639230        2.9981286481206211     
   42.941176470588232        42096536.192738645        3.2820517484528424     
   43.235294117647058        55544401.144322053        3.6480086165844452     
   43.529411764705884        72850946.477532610        4.1190248613410514     
   43.823529411764710        95004045.922664180        4.7230111710004188     
   44.117647058823529        123215404.07532439        5.4932142900742100     
   44.411764705882355        158964994.58108991        6.4684668283874656     
   44.705882352941174        204053132.45647460        7.6931573223170151     
   45.000000000000000        260661297.15578926        9.2168565371428848     
