 Freq (GHz)                  Ez                Et
   15000000000.000000        218.56262041804300        673.37226949683782        243.20529953134039        324.74575296301271     
   15300000000.000000        225.33605668041622        628.14244896037906        244.46282771748903        320.78274847780335     
   15600000000.000000        231.85336513303585        581.70686872061231        246.22081113867335        320.58713419194470     
   15900000000.000000        238.08229177172078        534.54152674958664        249.24095892378864        324.41391530188230     
   16200000000.000000        243.99919078751850        487.22267928465141        252.97127031893328        330.60247380647473     
   16500000000.000000        249.58846942082045        440.44912377422247        256.80299167807067        337.69687881867361     
   16800000000.000000        254.84195387610191        395.07769295946599        260.43678963336123        344.97405296972346     
   17100000000.000000        259.75819455935516        352.17476440633362        263.76970665331515        352.17729385581009     
   17400000000.000000        264.34172530982420        313.07902051044249        266.78585107785767        359.25556400295068     
   17700000000.000000        268.60228959408528        279.44523544921077        269.50856452725071        366.22854152449582     
   18000000000.000000        272.55404613996899        253.18056206415108        271.98125154214813        373.12778059437380     
   18300000000.000000        276.21476669924215        236.11691629655397        274.25693254628516        379.97270545525748     
   18600000000.000000        279.60503914999521        229.34531740364935        276.39081184967591        386.76160213174887     
   18900000000.000000        282.74748967636350        232.55145917449681        278.43527919150944        393.46930168578257     
   19200000000.000000        285.66603805171098        243.99503826256401        280.43720275416382        400.04819346743540     
   19500000000.000000        288.38519991147314        261.21250057865808        282.43679179428227        406.43116540429924     
   19800000000.000000        290.92944919446091        281.79962891871526        284.46722945266458        412.53580970359093     
   20100000000.000000        293.32265257362923        303.80939966652193        286.55482412707977        418.26950231057731     
   20400000000.000000        295.58758566911001        325.80956546157267        288.72023901067251        423.53506276694213     
   20700000000.000000        297.74553818607586        346.79817836619435        290.96961237824110        428.23674380728374     
   21000000000.000000        299.81601196471053        366.09855358623190        291.34976874207570        432.28632807723989     
   21300000000.000000        301.81651244781546        383.27451310369548        295.25969637019932        435.60913316502717     
   21600000000.000000        303.76243048841866        398.07058428426996        297.79113093556822        438.14974444373553     
   21900000000.000000        305.66700798446089        410.37168320113864        300.27297040998894        439.87730332222407     
   22200000000.000000        307.54137778725925        420.17599874650205        302.75007421614634        440.79017183863357     
   22500000000.000000        309.39466590277777        427.57621137170179        305.21634157638039        440.91977018819171     
   22800000000.000000        311.23414235484938        432.74563667106588        307.65936114341821        440.33334128519249     
   23100000000.000000        313.06540630348132        435.92692237986483        310.06856903370090        439.13533885188053     
   23400000000.000000        314.89259112883599        437.42157854093028        312.43992015168772        437.46707144726361     
   23700000000.000000        316.71857614780987        437.57901373829935        314.78354103124599        435.50418194035154     
   24000000000.000000        318.54519330648975        436.78401814127108        317.13994065737813        433.45153038389509     
   24300000000.000000        320.37341942120054        435.44190095410670        319.52758374944585        431.53512134357834     
   24600000000.000000        322.20354712694251        433.96086951328965        321.59872356043962        429.99092376861790     
   24900000000.000000        324.03533042780896        432.73181403224709        323.47298420047366        429.05080877205745     
   25200000000.000000        325.86810342904403        432.10644766103030        325.41942190441875        428.92637093280587     
   25500000000.000000        327.70087328450893        432.37563299839388        327.40399447664527        429.79201904238585     
   25800000000.000000        329.53239046669984        433.75044621383114        329.38455585589566        431.76925414084388     
   26100000000.000000        331.36120104620420        436.34875433847350        331.31810945497904        434.91428118404707     
   26400000000.000000        333.18568668127551        440.18956483144899        333.18920208003158        439.21085696599238     
   26700000000.000000        335.00409843495714        445.19617737267288        335.01856659335232        444.56954443527582     
   27000000000.000000        336.81459036602723        451.20758549327280        336.82733919316581        450.83350319461414     
   27300000000.000000        338.61525812710568        457.99617848244270        338.62388857161898        457.78991066285903     
   27600000000.000000        340.40418662713171        465.28902073681098        340.40929842752439        465.18537616163627     
   27900000000.000000        342.17950928111964        472.78996897623495        342.18220401314937        472.74343106446088     
   28200000000.000000        343.93947960192662        480.20045070946998        343.94071435055702        480.18231639122723     
   28500000000.000000        345.68255402257375        487.23754310998822        345.68302209602854        487.23168553803725     
   28800000000.000000        347.40748301268269        493.64876406921758        347.40761850479197        493.64731203297299     
   29100000000.000000        349.11340590374789        499.22354837691728        349.11343184422037        499.22330927703854     
   29400000000.000000        350.79994348869383        503.80169194111880        350.79994587747433        503.80167300504820     
   29700000000.000000        352.46728151751955        507.27914504961069        352.46728155576795        507.27914479083097     
   30000000000.000000        354.11623775657830        509.61148843884064        354.11623775657830        509.61148843884064     
   30294117647.058823        355.71645363586958        510.80214599849285        355.71645366937707        510.80214584485213     
   30588235294.117645        357.30248419497480        510.97978202404346        357.30248626613508        510.97977488078834     
   30882352941.176472        358.87699544027635        510.26933728293335        358.87701782435892        510.26928816607364     
   31176470588.235294        360.44321506369374        508.84395502353743        360.44333230190858        508.84386731425110     
   31470588235.294117        362.00484187027990        506.91757126809574        362.00525125171345        506.91797383689953     
   31764705882.352940        363.56592033717510        504.73462246776853        363.56701760335449        504.73805617308290     
   32058823529.411766        365.13068375630928        502.55666880351674        365.13311239284690        502.57095633181842     
   32352941176.470589        366.70337188629082        500.64602594644646        366.70799272062374        500.69021528727370     
   32647058823.529411        368.28803140339409        499.24696995849717        368.29574256248208        499.36078180417894     
   32941176470.588234        369.88830951996187        498.56568157662633        369.89963447395814        498.82300952131465     
   33235294117.647060        371.50725274900230        498.75069870815531        371.52161480848901        499.27720067791427     
   33529411764.705883        373.14712376324547        499.87605254126908        373.16174972922693        500.87020308246258     
   33823529411.764706        374.80924947658309        501.92927290319165        374.81769916071863        503.68556846597596     
   34117647058.823528        376.49391275615415        504.80596075001006        376.48431110381716        507.73846563362332     
   34411764705.882355        378.20029849767917        508.31171900326416        378.15343877431394        512.97593912112313     
   34705882352.941177        379.92650217035265        512.17116313961810        379.81406864941499        519.28234654200298     
   35000000000.000000        381.66960543160758        516.04282653605048        381.45280385919136        526.48909099489538     
   35294117647.058823        383.42581915986671        519.53828230990416        383.05467994582563        534.38727242893322     
   35588235294.117645        385.19068944220209        522.24380015316035        384.60421931600479        542.74171445441664     
   35882352941.176468        386.95935691138709        523.74325312346753        386.08658707868784        551.30496628761398     
   36176470588.235291        388.72685460689462        523.64161035218854        387.48871677089414        559.83022690287567     
   36470588235.294121        390.48842450369216        521.58903080976495        388.80032286368044        568.08255251356616     
   36764705882.352943        392.23982828175258        517.30620716525152        390.01476949857721        575.84807921744016     
   37058823529.411766        393.97762406894282        510.61215814866273        391.12978220872935        582.94126451014085     
   37352941176.470589        395.69937805279699        501.45611606360649        392.14796830210747        589.21031759647542     
   37647058823.529411        397.40377830039603        489.95542912041310        393.07708499728210        594.54106899317833     
   37941176470.588234        399.09061813528285        476.44122387264838        393.92999434406664        598.85954952365091     
   38235294117.647057        400.76061828292006        461.51222926110160        394.72427428096910        602.13352286614554     
   38529411764.705879        402.41506098185130        446.09309338856673        395.48149786938660        604.37314714996035     
   38823529411.764709        404.05521558369213        431.48408018621325        396.22622894311024        605.63082746542875     
   39117647058.823532        405.68154394094501        419.37163901240609        396.98480474178444        606.00016961178187     
   39411764705.882355        407.29268504002118        411.74720620085662        397.78398861787934        605.61378337560427     
   39705882352.941177        408.88423156098946        410.67575759478615        398.64958785466803        604.63955678444620     
   40000000000.000000        410.44732571170118        417.90767036123776        399.60514951614010        603.27498072778349     
   40294117647.058823        411.96711684196782        434.45054007704340        400.67086811039206        601.73918507942199     
   40588235294.117645        413.42113775865931        460.31356196556374        401.86284783897594        600.26257436138167     
   40882352941.176468        414.77766893286423        494.56158101565848        403.19283744244620        599.07432142783091     
   41176470588.235291        415.99416853674080        535.61390813411901        404.66848140813778        598.38845426879573     
   41470588235.294113        417.01585035366753        581.61152505925747        406.29401643561147        598.38976475514187     
   41764705882.352943        417.77449045701894        630.73264622892964        408.07123327086271        599.22113749233733     
   42058823529.411766        418.18753722477533        681.44544867582147        410.00049547654629        600.97398196420704     
   42352941176.470589        418.15758859079563        732.74974182571088        412.08171065228521        603.68314259861370     
   42647058823.529411        417.57228698725453        784.47164785337804        414.31534976088614        607.32697520016620     
   42941176470.588234        416.30466831942658        837.66141203063376        416.70378227833572        611.83238347946883     
   43235294117.647057        414.21398899037365        895.10889457876351        419.25326852049398        617.08377376691999     
   43529411764.705887        411.14704709663749        961.91524150582529        421.97709292630333        622.93435680627204     
   43823529411.764709        406.94001327076438        1045.9270468745788        424.90093545553850        629.21811860336163     
   44117647058.823532        401.42079657931242        1157.7062786225310        428.07312703832781        635.76104761909619     
   44411764705.882355        394.41199605035263        1309.7654811307825        431.58538971087251        642.39068122711637     
   44705882352.941177        385.73453646760646        1515.2135114574314        435.61417346458080        648.94353997557994     
   45000000000.000000        375.21217197502131        1786.4671907632862        440.49461834594319        655.27042718267683     
