 Freq (GHz)                  Ez                Et
   15000000000.000000        356.31568805028041        55.530866929215833        191.61484871361046        196.61581227560160     
   15300000000.000000        337.77041611975784        77.952788062231605        189.28611650756022        204.85323516109179     
   15600000000.000000        320.14324770702001        99.378076884159270        187.06518749805761        211.87237861812994     
   15900000000.000000        303.52719731534773        119.70187596870859        185.03154595430311        217.76995453837355     
   16200000000.000000        288.00820129366610        138.82962950810906        183.26598900096056        223.23793264659997     
   16500000000.000000        273.66320390899079        156.67728392903055        181.82050354509261        228.64690291456068     
   16800000000.000000        260.55770553057323        173.17178863386658        180.72142735443154        233.97307231508495     
   17100000000.000000        248.74283782442603        188.25162891421749        179.97928153518203        239.05385967709756     
   17400000000.000000        238.25216172584072        201.86733300257870        179.59350378605797        243.72365801791875     
   17700000000.000000        229.09853818776784        213.98193927410122        179.55683107435880        247.84867498969223     
   18000000000.000000        221.27155912691993        224.57142233842345        179.86690724156927        251.32802565860675     
   18300000000.000000        214.73608821614300        233.62508169094642        180.55953839965449        254.08814309238539     
   18600000000.000000        209.43239272737162        241.14589914344199        181.77748788714379        256.07754576017112     
   18900000000.000000        205.27812860279741        247.15087286857792        183.74420044508409        257.26319548889768     
   19200000000.000000        202.17211221302546        251.67133689249854        186.23756501497795        257.62847484540032     
   19500000000.000000        199.99947050718635        254.75327512596004        188.48144967825266        257.17255800863990     
   19800000000.000000        198.63751789046711        256.45763809960215        190.28851294487464        255.91062789000537     
   20100000000.000000        197.96163523386193        256.86066768178773        191.94370019107143        253.87414183116240     
   20400000000.000000        197.85052518874124        256.05422897236082        193.62940871996935        251.11076570294833     
   20700000000.000000        198.19042864194051        254.14613743695600        195.38273681093796        247.68459649399398     
   21000000000.000000        198.87812714030355        251.26045056427461        197.17849939393437        243.67755207569667     
   21300000000.000000        199.82275848836926        247.53766346804866        198.97675447708707        239.19146085569696     
   21600000000.000000        200.94660469022304        243.13470294801459        200.74026301173319        234.34896333939918     
   21900000000.000000        202.18507177925486        238.22455106894282        202.43942786818681        229.29189217768086     
   22200000000.000000        203.48608698804313        232.99524668970383        204.05330432862598        224.17757149114610     
   22500000000.000000        204.80911223862554        227.64791843052760        205.56946090829197        219.17420389786517     
   22800000000.000000        206.12393285731653        222.39341676220764        206.98336863848647        214.45584801893804     
   23100000000.000000        207.40933925100992        217.44708030483062        208.29745475172717        210.19671476264523     
   23400000000.000000        208.65178364241731        213.02126158402965        209.51973242105092        206.56440611339494     
   23700000000.000000        209.84406625026861        209.31553110419628        210.66178592347626        203.71210589708974     
   24000000000.000000        210.98408544081573        206.50502236925695        211.73607192984727        201.77011056572746     
   24300000000.000000        212.07367312216016        204.72811326959646        212.75320224699945        200.83714992099328     
   24600000000.000000        213.11752839366955        204.07533232563796        213.72068561848261        200.97196777096380     
   24900000000.000000        214.12225765037928        204.58167278514512        214.64419869971246        202.18637847523027     
   25200000000.000000        215.09552666935247        206.22409187931385        215.53027955954798        204.44226804910210     
   25500000000.000000        216.04532865522216        208.92487201470061        216.38760540765384        207.65480065041820     
   25800000000.000000        216.97937106113531        212.56012793819616        217.22454897438541        211.70190380246260     
   26100000000.000000        217.90458274581860        216.97164718666670        218.03758998755242        216.44029959255249     
   26400000000.000000        218.82674140960563        221.97985440684329        218.70763249194241        221.74948908074353     
   26700000000.000000        219.75021918301036        227.39599869363235        219.84580449246968        227.13667182191031     
   27000000000.000000        220.67784177285412        233.03237221126506        220.75961715392251        232.88930091339537     
   27300000000.000000        221.61085385602459        238.71011471886243        221.65828033742395        238.63770199883601     
   27600000000.000000        222.54898066144906        244.26471044768817        222.57401888900054        244.23172638118680     
   27900000000.000000        223.49057312601016        249.54957948969442        223.50244675709729        249.53659821959778     
   28200000000.000000        224.43282185978111        254.43825355910411        224.43777631241682        254.43333540774367     
   28500000000.000000        225.37202357275595        258.82558819293996        225.37375667755828        258.82395927492945     
   28800000000.000000        226.30388269849172        262.62837097872386        226.30434854249233        262.62796260061805     
   29100000000.000000        227.22383073240263        265.78558271128782        227.22391358790873        265.78551516497191     
   29400000000.000000        228.12734625768093        268.25847657225421        228.12735334251150        268.25847119752001     
   29700000000.000000        229.01025969106999        270.03056541667138        229.01025979607388        270.03056534253824     
   30000000000.000000        229.86902835204745        271.10754711842668        229.86902835204745        271.10754711842668     
   30294117647.058823        230.68492697402823        271.51525191721822        230.68492704937464        271.51525187084053     
   30588235294.117645        231.47347831381981        271.32782406138290        231.47348277058870        271.32782175431925     
   30882352941.176472        232.23419627889893        270.61122757528119        232.23424350566864        270.61120900627230     
   31176470588.235294        232.96772010214764        269.45011517881642        232.96796152219773        269.45005435849288     
   31470588235.294117        233.67580894954398        267.94640913382892        233.67662503318977        267.94633955393459     
   31764705882.352940        234.36127919170437        266.21712506771439        234.36338470528997        266.21737595172397     
   32058823529.411766        235.02788854545418        264.39120776218374        235.03236808864935        264.39291127417937     
   32352941176.470589        235.68017438696819        262.60516199406851        235.68840892554107        262.61126384986386     
   32647058823.529411        236.32325675363768        260.99732897167780        236.33675719281533        261.01465234738822     
   32941176470.588234        236.96261982546213        259.70079801113604        236.98288571249552        259.74366685692513     
   33235294117.647060        237.60388891828222        258.83515867458755        237.63236959356414        258.93072728058576     
   33529411764.705883        238.25262311735312        258.49756827481974        238.28962915592115        258.69312267526021     
   33823529411.764706        238.91414650609801        258.75387517644708        238.95137373932249        259.12649465034735     
   34117647058.823528        239.59344338288759        259.63071292748054        239.61484656707606        260.29948618823011     
   34411764705.882355        240.29514481647493        261.10947870399843        240.32384641515614        262.25012357847737     
   34705882352.941177        241.02363532175735        263.12289243843117        241.10304795347378        264.98337697244210     
   35000000000.000000        241.78330935191582        265.55443988835282        241.94052272312612        268.46735058487877     
   35294117647.058823        242.57900776370434        268.24054731438031        242.76379148155968        272.63330925184175     
   35588235294.117645        243.41666451006091        270.97495761542518        243.53373004299777        277.39859900929440     
   35882352941.176468        244.30419361211779        273.51458272902897        244.31788708546998        282.71956776378698     
   36176470588.235291        245.25264591116323        275.58612699906962        245.82653611949641        289.31123519075959     
   36470588235.294121        246.27766391316993        276.89297654167012        245.00909036837771        293.11169385191585     
   36764705882.352943        247.40126053136609        277.12216817619259        245.67962982950976        299.36166329357229     
   37058823529.411766        248.65394244250160        275.95164445614540        246.13090085995398        305.35527224739434     
   37352941176.470589        250.07718907203858        273.05848071565731        246.40954769456465        311.17893563772219     
   37647058823.529411        251.72628100261826        268.12943731899884        246.45405800540578        316.71693339339646     
   37941176470.588234        253.67344314773294        260.87629455625478        246.17710160229038        321.80369784218806     
   38235294117.647057        256.01122434631310        251.06050485686433        245.62719642891727        326.37702733017210     
   38529411764.705879        258.85597310003681        238.53590511040235        244.96586019321145        330.54067335846918     
   38823529411.764709        262.35118938625811        223.32710496649727        244.22081249185942        334.34003651108844     
   39117647058.823532        266.67044231829777        205.78001190580233        243.33429577660206        337.74059048558320     
   39411764705.882355        272.01946172956553        186.85826345777332        242.26124210893511        340.71399046531172     
   39705882352.941177        278.63697130694584        168.70928340389420        240.96413284456250        343.24193831019852     
   40000000000.000000        286.79387511699582        155.53926997936136        239.37580855620661        345.27326381041149     
   40294117647.058823        296.79057841600581        153.98084874801262        237.39399456134723        346.70171365840389     
   40588235294.117645        308.95252903601460        170.57549355718911        234.96201923045061        347.45092045580657     
   40882352941.176468        323.62446272138089        207.34310671196363        232.13489641267600        347.57674760276666     
   41176470588.235291        341.16421487768878        262.09259274855526        229.00541634137102        347.20188250008943     
   41470588235.294113        361.93717849592264        332.05124203180605        225.61611461554875        346.39698316710388     
   41764705882.352943        386.31243406787843        415.47787477784158        221.94352761936790        345.13962267580837     
   42058823529.411766        414.66124497103920        511.58582658664437        217.89303059733035        343.29637863456173     
   42352941176.470589        447.35811209975128        620.18246344275951        213.24734889822668        340.55359923079106     
   42647058823.529411        484.78408867735465        741.41608571884797        207.51189028494466        336.20497224744361     
   42941176470.588234        527.33171869248031        875.63179226651414        199.46135403696280        328.45362847033607     
   43235294117.647057        575.41084105594916        1023.2917768204234        185.19924977192127        311.22736870909227     
   43529411764.705887        629.45456666867403        1184.9300667509035        139.29796719399886        243.45537624570741     
   43823529411.764709        689.92490807741478        1361.1255022105354        346.28508920726847        578.92812013469211     
   44117647058.823532        757.31774063957823        1552.4845456110313        238.99040261576718        414.66652534742843     
   44411764705.882355        832.16694607801162        1759.6295130361855        219.86720222614306        389.21518045729829     
   44705882352.941177        915.04771137707189        1983.1898557629311        210.36429321522692        378.21027557500111     
   45000000000.000000        1006.5790282065393        2223.7951762882549        204.08730973747151        371.39928154884910     
